  x  	  n(x)  	  dndx(x)  	  Alfa  	  Band gap  	  EQ Field

         0	6.199e+10	0	7.417e+06	2.76	-1.615e+05
   7.8e-09	6.594e+10	4.92e+17	7.427e+06	2.759	-1.615e+05
  1.56e-08	6.966e+10	4.635e+17	7.436e+06	2.757	-1.615e+05
  2.34e-08	7.317e+10	4.365e+17	7.446e+06	2.756	-1.615e+05
  3.12e-08	7.647e+10	4.11e+17	7.455e+06	2.755	-1.615e+05
   3.9e-08	7.958e+10	3.868e+17	7.464e+06	2.754	-1.615e+05
  4.68e-08	8.251e+10	3.64e+17	7.474e+06	2.752	-1.615e+05
  5.46e-08	8.526e+10	3.425e+17	7.483e+06	2.751	-1.615e+05
  6.24e-08	8.785e+10	3.221e+17	7.493e+06	2.75	-1.615e+05
  7.02e-08	9.029e+10	3.029e+17	7.502e+06	2.749	-1.615e+05
   7.8e-08	9.258e+10	2.847e+17	7.511e+06	2.747	-1.615e+05
  8.58e-08	9.473e+10	2.676e+17	7.521e+06	2.746	-1.615e+05
  9.36e-08	9.675e+10	2.513e+17	7.53e+06	2.745	-1.615e+05
 1.014e-07	9.865e+10	2.36e+17	7.54e+06	2.744	-1.615e+05
 1.092e-07	1.004e+11	2.215e+17	7.549e+06	2.742	-1.615e+05
  1.17e-07	1.021e+11	2.079e+17	7.559e+06	2.741	-1.615e+05
 1.248e-07	1.037e+11	1.95e+17	7.568e+06	2.74	-1.615e+05
 1.326e-07	1.051e+11	1.828e+17	7.578e+06	2.739	-1.615e+05
 1.404e-07	1.065e+11	1.713e+17	7.588e+06	2.737	-1.615e+05
 1.482e-07	1.078e+11	1.604e+17	7.597e+06	2.736	-1.615e+05
  1.56e-07	1.09e+11	1.501e+17	7.607e+06	2.735	-1.615e+05
 1.638e-07	1.102e+11	1.405e+17	7.616e+06	2.734	-1.615e+05
 1.716e-07	1.112e+11	1.313e+17	7.626e+06	2.732	-1.615e+05
 1.794e-07	1.122e+11	1.227e+17	7.636e+06	2.731	-1.615e+05
 1.872e-07	1.131e+11	1.145e+17	7.645e+06	2.73	-1.615e+05
  1.95e-07	1.14e+11	1.069e+17	7.655e+06	2.728	-1.615e+05
 2.028e-07	1.148e+11	9.96e+16	7.664e+06	2.727	-1.615e+05
 2.106e-07	1.155e+11	9.276e+16	7.674e+06	2.726	-1.615e+05
 2.184e-07	1.162e+11	8.631e+16	7.684e+06	2.725	-1.615e+05
 2.262e-07	1.169e+11	8.022e+16	7.693e+06	2.723	-1.615e+05
  2.34e-07	1.175e+11	7.448e+16	7.703e+06	2.722	-1.615e+05
 2.418e-07	1.181e+11	6.906e+16	7.713e+06	2.721	-1.615e+05
 2.496e-07	1.186e+11	6.395e+16	7.723e+06	2.72	-1.615e+05
 2.574e-07	1.191e+11	5.913e+16	7.732e+06	2.718	-1.615e+05
 2.652e-07	1.195e+11	5.459e+16	7.742e+06	2.717	-1.615e+05
  2.73e-07	1.199e+11	5.031e+16	7.752e+06	2.716	-1.615e+05
 2.808e-07	1.203e+11	4.627e+16	7.762e+06	2.715	-1.615e+05
 2.886e-07	1.206e+11	4.246e+16	7.771e+06	2.713	-1.615e+05
 2.964e-07	1.209e+11	3.887e+16	7.781e+06	2.712	-1.615e+05
 3.042e-07	1.212e+11	3.549e+16	7.791e+06	2.711	-1.615e+05
  3.12e-07	1.215e+11	3.231e+16	7.801e+06	2.71	-1.615e+05
 3.198e-07	1.217e+11	2.93e+16	7.811e+06	2.708	-1.615e+05
 3.276e-07	1.22e+11	2.647e+16	7.821e+06	2.707	-1.615e+05
 3.354e-07	1.222e+11	2.381e+16	7.83e+06	2.706	-1.615e+05
 3.432e-07	1.223e+11	2.13e+16	7.84e+06	2.705	-1.615e+05
  3.51e-07	1.225e+11	1.893e+16	7.85e+06	2.703	-1.615e+05
 3.588e-07	1.226e+11	1.671e+16	7.86e+06	2.702	-1.615e+05
 3.666e-07	1.227e+11	1.461e+16	7.87e+06	2.701	-1.615e+05
 3.744e-07	1.229e+11	1.264e+16	7.88e+06	2.7	-1.615e+05
 3.822e-07	1.229e+11	1.078e+16	7.89e+06	2.698	-1.615e+05
   3.9e-07	1.23e+11	9.027e+15	7.9e+06	2.697	-1.615e+05
 3.978e-07	1.231e+11	7.38e+15	7.91e+06	2.696	-1.615e+05
 4.056e-07	1.231e+11	5.83e+15	7.92e+06	2.694	-1.615e+05
 4.134e-07	1.232e+11	4.371e+15	7.93e+06	2.693	-1.615e+05
 4.212e-07	1.232e+11	2.999e+15	7.94e+06	2.692	-1.615e+05
  4.29e-07	1.232e+11	1.708e+15	7.95e+06	2.691	-1.615e+05
 4.368e-07	1.232e+11	4.937e+14	7.96e+06	2.689	-1.615e+05
 4.446e-07	1.232e+11	-6.483e+14	7.97e+06	2.688	-1.615e+05
 4.524e-07	1.232e+11	-1.722e+15	7.98e+06	2.687	-1.615e+05
 4.602e-07	1.232e+11	-2.732e+15	7.99e+06	2.686	-1.615e+05
  4.68e-07	1.232e+11	-3.681e+15	8e+06	2.684	-1.615e+05
 4.758e-07	1.231e+11	-4.572e+15	8.01e+06	2.683	-1.615e+05
 4.836e-07	1.231e+11	-5.411e+15	8.02e+06	2.682	-1.615e+05
 4.914e-07	1.231e+11	-6.198e+15	8.03e+06	2.681	-1.615e+05
 4.992e-07	1.23e+11	-6.938e+15	8.04e+06	2.679	-1.615e+05
  5.07e-07	1.23e+11	-7.632e+15	8.05e+06	2.678	-1.615e+05
 5.148e-07	1.229e+11	-8.285e+15	8.061e+06	2.677	-1.615e+05
 5.226e-07	1.228e+11	-8.897e+15	8.071e+06	2.676	-1.615e+05
 5.304e-07	1.228e+11	-9.472e+15	8.081e+06	2.674	-1.615e+05
 5.382e-07	1.227e+11	-1.001e+16	8.091e+06	2.673	-1.615e+05
  5.46e-07	1.226e+11	-1.052e+16	8.101e+06	2.672	-1.615e+05
 5.538e-07	1.225e+11	-1.099e+16	8.112e+06	2.671	-1.615e+05
 5.616e-07	1.224e+11	-1.144e+16	8.122e+06	2.669	-1.615e+05
 5.694e-07	1.223e+11	-1.185e+16	8.132e+06	2.668	-1.615e+05
 5.772e-07	1.222e+11	-1.225e+16	8.142e+06	2.667	-1.615e+05
  5.85e-07	1.221e+11	-1.261e+16	8.153e+06	2.666	-1.615e+05
 5.928e-07	1.22e+11	-1.295e+16	8.163e+06	2.664	-1.615e+05
 6.006e-07	1.219e+11	-1.328e+16	8.173e+06	2.663	-1.615e+05
 6.084e-07	1.218e+11	-1.358e+16	8.183e+06	2.662	-1.615e+05
 6.162e-07	1.217e+11	-1.386e+16	8.194e+06	2.66	-1.615e+05
  6.24e-07	1.216e+11	-1.412e+16	8.204e+06	2.659	-1.615e+05
 6.318e-07	1.215e+11	-1.437e+16	8.214e+06	2.658	-1.615e+05
 6.396e-07	1.214e+11	-1.46e+16	8.225e+06	2.657	-1.615e+05
 6.474e-07	1.213e+11	-1.481e+16	8.235e+06	2.655	-1.615e+05
 6.552e-07	1.212e+11	-1.501e+16	8.246e+06	2.654	-1.615e+05
  6.63e-07	1.21e+11	-1.52e+16	8.256e+06	2.653	-1.615e+05
 6.708e-07	1.209e+11	-1.537e+16	8.266e+06	2.652	-1.615e+05
 6.786e-07	1.208e+11	-1.553e+16	8.277e+06	2.65	-1.615e+05
 6.864e-07	1.207e+11	-1.569e+16	8.287e+06	2.649	-1.615e+05
 6.942e-07	1.206e+11	-1.583e+16	8.298e+06	2.648	-1.615e+05
  7.02e-07	1.204e+11	-1.596e+16	8.308e+06	2.647	-1.615e+05
 7.098e-07	1.203e+11	-1.608e+16	8.319e+06	2.645	-1.615e+05
 7.176e-07	1.202e+11	-1.619e+16	8.329e+06	2.644	-1.615e+05
 7.254e-07	1.201e+11	-1.63e+16	8.34e+06	2.643	-1.615e+05
 7.332e-07	1.199e+11	-1.639e+16	8.35e+06	2.642	-1.615e+05
  7.41e-07	1.198e+11	-1.648e+16	8.361e+06	2.64	-1.615e+05
 7.488e-07	1.197e+11	-1.657e+16	8.371e+06	2.639	-1.615e+05
 7.566e-07	1.195e+11	-1.664e+16	8.382e+06	2.638	-1.615e+05
 7.644e-07	1.194e+11	-1.671e+16	8.392e+06	2.637	-1.615e+05
 7.722e-07	1.193e+11	-1.678e+16	8.403e+06	2.635	-1.615e+05
   7.8e-07	1.192e+11	-1.684e+16	8.413e+06	2.634	-1.615e+05
 7.878e-07	1.19e+11	-1.689e+16	8.424e+06	2.633	-1.615e+05
 7.956e-07	1.189e+11	-1.694e+16	8.435e+06	2.631	-1.615e+05
 8.034e-07	1.188e+11	-1.699e+16	8.445e+06	2.63	-1.615e+05
 8.112e-07	1.186e+11	-1.703e+16	8.456e+06	2.629	-1.615e+05
  8.19e-07	1.185e+11	-1.707e+16	8.467e+06	2.628	-1.615e+05
 8.268e-07	1.184e+11	-1.71e+16	8.477e+06	2.626	-1.615e+05
 8.346e-07	1.182e+11	-1.713e+16	8.488e+06	2.625	-1.615e+05
 8.424e-07	1.181e+11	-1.716e+16	8.499e+06	2.624	-1.615e+05
 8.502e-07	1.18e+11	-1.718e+16	8.509e+06	2.623	-1.615e+05
  8.58e-07	1.178e+11	-1.72e+16	8.52e+06	2.621	-1.615e+05
 8.658e-07	1.177e+11	-1.722e+16	8.531e+06	2.62	-1.615e+05
 8.736e-07	1.176e+11	-1.724e+16	8.542e+06	2.619	-1.615e+05
 8.814e-07	1.174e+11	-1.725e+16	8.552e+06	2.618	-1.615e+05
 8.892e-07	1.173e+11	-1.727e+16	8.563e+06	2.616	-1.615e+05
  8.97e-07	1.172e+11	-1.727e+16	8.574e+06	2.615	-1.615e+05
 9.048e-07	1.17e+11	-1.728e+16	8.585e+06	2.614	-1.615e+05
 9.126e-07	1.169e+11	-1.729e+16	8.596e+06	2.613	-1.615e+05
 9.204e-07	1.167e+11	-1.729e+16	8.606e+06	2.611	-1.615e+05
 9.282e-07	1.166e+11	-1.73e+16	8.617e+06	2.61	-1.615e+05
  9.36e-07	1.165e+11	-1.73e+16	8.628e+06	2.609	-1.615e+05
 9.438e-07	1.163e+11	-1.73e+16	8.639e+06	2.608	-1.615e+05
 9.516e-07	1.162e+11	-1.73e+16	8.65e+06	2.606	-1.615e+05
 9.594e-07	1.161e+11	-1.729e+16	8.661e+06	2.605	-1.615e+05
 9.672e-07	1.159e+11	-1.729e+16	8.672e+06	2.604	-1.615e+05
  9.75e-07	1.158e+11	-1.729e+16	8.683e+06	2.603	-1.615e+05
 9.828e-07	1.157e+11	-1.728e+16	8.694e+06	2.601	-1.615e+05
 9.906e-07	1.155e+11	-1.727e+16	8.705e+06	2.6	-1.615e+05
 9.984e-07	1.154e+11	-1.727e+16	8.716e+06	2.599	-1.615e+05
 1.006e-06	1.153e+11	-1.726e+16	8.727e+06	2.597	-1.615e+05
 1.014e-06	1.151e+11	-1.725e+16	8.738e+06	2.596	-1.615e+05
 1.022e-06	1.15e+11	-1.724e+16	8.749e+06	2.595	-1.615e+05
  1.03e-06	1.149e+11	-1.723e+16	8.76e+06	2.594	-1.615e+05
 1.037e-06	1.147e+11	-1.722e+16	8.771e+06	2.592	-1.615e+05
 1.045e-06	1.146e+11	-1.721e+16	8.782e+06	2.591	-1.615e+05
 1.053e-06	1.145e+11	-1.719e+16	8.793e+06	2.59	-1.615e+05
 1.061e-06	1.143e+11	-1.718e+16	8.804e+06	2.589	-1.615e+05
 1.069e-06	1.142e+11	-1.717e+16	8.815e+06	2.587	-1.615e+05
 1.076e-06	1.141e+11	-1.715e+16	8.826e+06	2.586	-1.615e+05
 1.084e-06	1.139e+11	-1.714e+16	8.837e+06	2.585	-1.615e+05
 1.092e-06	1.138e+11	-1.713e+16	8.848e+06	2.584	-1.615e+05
   1.1e-06	1.137e+11	-1.711e+16	8.86e+06	2.582	-1.615e+05
 1.108e-06	1.135e+11	-1.71e+16	8.871e+06	2.581	-1.615e+05
 1.115e-06	1.134e+11	-1.708e+16	8.882e+06	2.58	-1.615e+05
 1.123e-06	1.133e+11	-1.706e+16	8.893e+06	2.579	-1.615e+05
 1.131e-06	1.131e+11	-1.705e+16	8.904e+06	2.577	-1.615e+05
 1.139e-06	1.13e+11	-1.703e+16	8.916e+06	2.576	-1.615e+05
 1.147e-06	1.129e+11	-1.702e+16	8.927e+06	2.575	-1.615e+05
 1.154e-06	1.127e+11	-1.7e+16	8.938e+06	2.574	-1.615e+05
 1.162e-06	1.126e+11	-1.698e+16	8.949e+06	2.572	-1.615e+05
  1.17e-06	1.125e+11	-1.697e+16	8.961e+06	2.571	-1.615e+05
 1.178e-06	1.123e+11	-1.695e+16	8.972e+06	2.57	-1.615e+05
 1.186e-06	1.122e+11	-1.693e+16	8.983e+06	2.568	-1.615e+05
 1.193e-06	1.121e+11	-1.691e+16	8.995e+06	2.567	-1.615e+05
 1.201e-06	1.119e+11	-1.69e+16	9.006e+06	2.566	-1.615e+05
 1.209e-06	1.118e+11	-1.688e+16	9.017e+06	2.565	-1.615e+05
 1.217e-06	1.117e+11	-1.686e+16	9.029e+06	2.563	-1.615e+05
 1.225e-06	1.115e+11	-1.684e+16	9.04e+06	2.562	-1.615e+05
 1.232e-06	1.114e+11	-1.682e+16	9.051e+06	2.561	-1.615e+05
  1.24e-06	1.113e+11	-1.681e+16	9.063e+06	2.56	-1.615e+05
 1.248e-06	1.111e+11	-1.679e+16	9.074e+06	2.558	-1.615e+05
 1.256e-06	1.11e+11	-1.677e+16	9.086e+06	2.557	-1.615e+05
 1.264e-06	1.109e+11	-1.675e+16	9.097e+06	2.556	-1.615e+05
 1.271e-06	1.107e+11	-1.673e+16	9.109e+06	2.555	-1.615e+05
 1.279e-06	1.106e+11	-1.671e+16	9.12e+06	2.553	-1.615e+05
 1.287e-06	1.105e+11	-1.669e+16	9.132e+06	2.552	-1.615e+05
 1.295e-06	1.104e+11	-1.668e+16	9.143e+06	2.551	-1.615e+05
 1.303e-06	1.102e+11	-1.666e+16	9.155e+06	2.55	-1.615e+05
  1.31e-06	1.101e+11	-1.664e+16	9.166e+06	2.548	-1.615e+05
 1.318e-06	1.1e+11	-1.662e+16	9.178e+06	2.547	-1.615e+05
 1.326e-06	1.098e+11	-1.66e+16	9.189e+06	2.546	-1.615e+05
 1.334e-06	1.097e+11	-1.658e+16	9.201e+06	2.545	-1.615e+05
 1.342e-06	1.096e+11	-1.656e+16	9.212e+06	2.543	-1.615e+05
 1.349e-06	1.095e+11	-1.654e+16	9.224e+06	2.542	-1.615e+05
 1.357e-06	1.093e+11	-1.652e+16	9.236e+06	2.541	-1.615e+05
 1.365e-06	1.092e+11	-1.651e+16	9.247e+06	2.54	-1.615e+05
 1.373e-06	1.091e+11	-1.649e+16	9.259e+06	2.538	-1.615e+05
 1.381e-06	1.089e+11	-1.647e+16	9.271e+06	2.537	-1.615e+05
 1.388e-06	1.088e+11	-1.645e+16	9.282e+06	2.536	-1.615e+05
 1.396e-06	1.087e+11	-1.643e+16	9.294e+06	2.534	-1.615e+05
 1.404e-06	1.086e+11	-1.641e+16	9.306e+06	2.533	-1.615e+05
 1.412e-06	1.084e+11	-1.639e+16	9.317e+06	2.532	-1.615e+05
  1.42e-06	1.083e+11	-1.637e+16	9.329e+06	2.531	-1.615e+05
 1.427e-06	1.082e+11	-1.635e+16	9.341e+06	2.529	-1.615e+05
 1.435e-06	1.08e+11	-1.633e+16	9.353e+06	2.528	-1.615e+05
 1.443e-06	1.079e+11	-1.632e+16	9.365e+06	2.527	-1.615e+05
 1.451e-06	1.078e+11	-1.63e+16	9.376e+06	2.526	-1.615e+05
 1.459e-06	1.077e+11	-1.628e+16	9.388e+06	2.524	-1.615e+05
 1.466e-06	1.075e+11	-1.626e+16	9.4e+06	2.523	-1.615e+05
 1.474e-06	1.074e+11	-1.624e+16	9.412e+06	2.522	-1.615e+05
 1.482e-06	1.073e+11	-1.622e+16	9.424e+06	2.521	-1.615e+05
  1.49e-06	1.072e+11	-1.62e+16	9.436e+06	2.519	-1.615e+05
 1.498e-06	1.07e+11	-1.618e+16	9.448e+06	2.518	-1.615e+05
 1.505e-06	1.069e+11	-1.616e+16	9.459e+06	2.517	-1.615e+05
 1.513e-06	1.068e+11	-1.614e+16	9.471e+06	2.516	-1.615e+05
 1.521e-06	1.066e+11	-1.613e+16	9.483e+06	2.514	-1.615e+05
 1.529e-06	1.065e+11	-1.611e+16	9.495e+06	2.513	-1.615e+05
 1.537e-06	1.064e+11	-1.609e+16	9.507e+06	2.512	-1.615e+05
 1.544e-06	1.063e+11	-1.607e+16	9.519e+06	2.511	-1.615e+05
 1.552e-06	1.061e+11	-1.605e+16	9.531e+06	2.509	-1.615e+05
  1.56e-06	1.06e+11	-1.603e+16	9.543e+06	2.508	-1.615e+05
 1.568e-06	1.059e+11	-1.601e+16	9.555e+06	2.507	-1.615e+05
 1.576e-06	1.058e+11	-1.599e+16	9.567e+06	2.505	-1.615e+05
 1.583e-06	1.056e+11	-1.598e+16	9.579e+06	2.504	-1.615e+05
 1.591e-06	1.055e+11	-1.596e+16	9.591e+06	2.503	-1.615e+05
 1.599e-06	1.054e+11	-1.594e+16	9.604e+06	2.502	-1.615e+05
 1.607e-06	1.053e+11	-1.592e+16	9.616e+06	2.5	-1.615e+05
 1.615e-06	1.051e+11	-1.59e+16	9.628e+06	2.499	-1.615e+05
 1.622e-06	1.05e+11	-1.588e+16	9.64e+06	2.498	-1.615e+05
  1.63e-06	1.049e+11	-1.586e+16	9.652e+06	2.497	-1.615e+05
 1.638e-06	1.048e+11	-1.584e+16	9.664e+06	2.495	-1.615e+05
 1.646e-06	1.047e+11	-1.583e+16	9.676e+06	2.494	-1.615e+05
 1.654e-06	1.045e+11	-1.581e+16	9.689e+06	2.493	-1.615e+05
 1.661e-06	1.044e+11	-1.579e+16	9.701e+06	2.492	-1.615e+05
 1.669e-06	1.043e+11	-1.577e+16	9.713e+06	2.49	-1.615e+05
 1.677e-06	1.042e+11	-1.575e+16	9.725e+06	2.489	-1.615e+05
 1.685e-06	1.04e+11	-1.573e+16	9.738e+06	2.488	-1.615e+05
 1.693e-06	1.039e+11	-1.571e+16	9.75e+06	2.487	-1.615e+05
   1.7e-06	1.038e+11	-1.57e+16	9.762e+06	2.485	-1.615e+05
 1.708e-06	1.037e+11	-1.568e+16	9.774e+06	2.484	-1.615e+05
 1.716e-06	1.035e+11	-1.566e+16	9.787e+06	2.483	-1.615e+05
 1.724e-06	1.034e+11	-1.564e+16	9.799e+06	2.482	-1.615e+05
 1.732e-06	1.033e+11	-1.562e+16	9.811e+06	2.48	-1.615e+05
 1.739e-06	1.032e+11	-1.56e+16	9.824e+06	2.479	-1.615e+05
 1.747e-06	1.031e+11	-1.559e+16	9.836e+06	2.478	-1.615e+05
 1.755e-06	1.029e+11	-1.557e+16	9.849e+06	2.477	-1.615e+05
 1.763e-06	1.028e+11	-1.555e+16	9.861e+06	2.475	-1.615e+05
 1.771e-06	1.027e+11	-1.553e+16	9.873e+06	2.474	-1.615e+05
 1.778e-06	1.026e+11	-1.551e+16	9.886e+06	2.473	-1.615e+05
 1.786e-06	1.025e+11	-1.549e+16	9.898e+06	2.471	-1.615e+05
 1.794e-06	1.023e+11	-1.548e+16	9.911e+06	2.47	-1.615e+05
 1.802e-06	1.022e+11	-1.546e+16	9.923e+06	2.469	-1.615e+05
  1.81e-06	1.021e+11	-1.544e+16	9.936e+06	2.468	-1.615e+05
 1.817e-06	1.02e+11	-1.542e+16	9.948e+06	2.466	-1.615e+05
 1.825e-06	1.019e+11	-1.54e+16	9.961e+06	2.465	-1.615e+05
 1.833e-06	1.017e+11	-1.538e+16	9.974e+06	2.464	-1.615e+05
 1.841e-06	1.016e+11	-1.537e+16	9.986e+06	2.463	-1.615e+05
 1.849e-06	1.015e+11	-1.535e+16	9.999e+06	2.461	-1.615e+05
 1.856e-06	1.014e+11	-1.533e+16	1.001e+07	2.46	-1.615e+05
 1.864e-06	1.013e+11	-1.531e+16	1.002e+07	2.459	-1.615e+05
 1.872e-06	1.011e+11	-1.529e+16	1.004e+07	2.458	-1.615e+05
  1.88e-06	1.01e+11	-1.528e+16	1.005e+07	2.456	-1.615e+05
 1.888e-06	1.009e+11	-1.526e+16	1.006e+07	2.455	-1.615e+05
 1.895e-06	1.008e+11	-1.524e+16	1.007e+07	2.454	-1.615e+05
 1.903e-06	1.007e+11	-1.522e+16	1.009e+07	2.453	-1.615e+05
 1.911e-06	1.005e+11	-1.52e+16	1.01e+07	2.451	-1.615e+05
 1.919e-06	1.004e+11	-1.519e+16	1.011e+07	2.45	-1.615e+05
 1.927e-06	1.003e+11	-1.517e+16	1.013e+07	2.449	-1.615e+05
 1.934e-06	1.002e+11	-1.515e+16	1.014e+07	2.448	-1.615e+05
 1.942e-06	1.001e+11	-1.513e+16	1.015e+07	2.446	-1.615e+05
  1.95e-06	9.995e+10	-1.511e+16	1.016e+07	2.445	-1.615e+05
 1.958e-06	9.983e+10	-1.51e+16	1.018e+07	2.444	-1.615e+05
 1.966e-06	9.971e+10	-1.508e+16	1.019e+07	2.442	-1.615e+05
 1.973e-06	9.96e+10	-1.506e+16	1.02e+07	2.441	-1.615e+05
 1.981e-06	9.948e+10	-1.504e+16	1.022e+07	2.44	-1.615e+05
 1.989e-06	9.936e+10	-1.503e+16	1.023e+07	2.439	-1.615e+05
 1.997e-06	9.924e+10	-1.501e+16	1.024e+07	2.437	-1.615e+05
 2.005e-06	9.913e+10	-1.499e+16	1.025e+07	2.436	-1.615e+05
 2.012e-06	9.901e+10	-1.497e+16	1.027e+07	2.435	-1.615e+05
  2.02e-06	9.889e+10	-1.496e+16	1.028e+07	2.434	-1.615e+05
 2.028e-06	9.878e+10	-1.494e+16	1.029e+07	2.432	-1.615e+05
 2.036e-06	9.866e+10	-1.492e+16	1.031e+07	2.431	-1.615e+05
 2.044e-06	9.854e+10	-1.49e+16	1.032e+07	2.43	-1.615e+05
 2.051e-06	9.843e+10	-1.488e+16	1.033e+07	2.429	-1.615e+05
 2.059e-06	9.831e+10	-1.487e+16	1.034e+07	2.427	-1.615e+05
 2.067e-06	9.82e+10	-1.485e+16	1.036e+07	2.426	-1.615e+05
 2.075e-06	9.808e+10	-1.483e+16	1.037e+07	2.425	-1.615e+05
 2.083e-06	9.797e+10	-1.481e+16	1.038e+07	2.424	-1.615e+05
  2.09e-06	9.785e+10	-1.48e+16	1.04e+07	2.422	-1.615e+05
 2.098e-06	9.773e+10	-1.478e+16	1.041e+07	2.421	-1.615e+05
 2.106e-06	9.762e+10	-1.476e+16	1.042e+07	2.42	-1.615e+05
 2.114e-06	9.75e+10	-1.474e+16	1.044e+07	2.419	-1.615e+05
 2.122e-06	9.739e+10	-1.473e+16	1.045e+07	2.417	-1.615e+05
 2.129e-06	9.727e+10	-1.471e+16	1.046e+07	2.416	-1.615e+05
 2.137e-06	9.716e+10	-1.469e+16	1.048e+07	2.415	-1.615e+05
 2.145e-06	9.705e+10	-1.468e+16	1.049e+07	2.414	-1.615e+05
 2.153e-06	9.693e+10	-1.466e+16	1.05e+07	2.412	-1.615e+05
 2.161e-06	9.682e+10	-1.464e+16	1.052e+07	2.411	-1.615e+05
 2.168e-06	9.67e+10	-1.462e+16	1.053e+07	2.41	-1.615e+05
 2.176e-06	9.659e+10	-1.461e+16	1.054e+07	2.408	-1.615e+05
 2.184e-06	9.647e+10	-1.459e+16	1.056e+07	2.407	-1.615e+05
 2.192e-06	9.636e+10	-1.457e+16	1.057e+07	2.406	-1.615e+05
   2.2e-06	9.625e+10	-1.455e+16	1.058e+07	2.405	-1.615e+05
 2.207e-06	9.613e+10	-1.454e+16	1.06e+07	2.403	-1.615e+05
 2.215e-06	9.602e+10	-1.452e+16	1.061e+07	2.402	-1.615e+05
 2.223e-06	9.591e+10	-1.45e+16	1.062e+07	2.401	-1.615e+05
 2.231e-06	9.579e+10	-1.449e+16	1.064e+07	2.4	-1.615e+05
 2.239e-06	9.568e+10	-1.447e+16	1.065e+07	2.398	-1.615e+05
 2.246e-06	9.557e+10	-1.445e+16	1.066e+07	2.397	-1.615e+05
 2.254e-06	9.546e+10	-1.444e+16	1.068e+07	2.396	-1.615e+05
 2.262e-06	9.534e+10	-1.442e+16	1.069e+07	2.395	-1.615e+05
  2.27e-06	9.523e+10	-1.44e+16	1.07e+07	2.393	-1.615e+05
 2.278e-06	9.512e+10	-1.438e+16	1.072e+07	2.392	-1.615e+05
 2.285e-06	9.501e+10	-1.437e+16	1.073e+07	2.391	-1.615e+05
 2.293e-06	9.489e+10	-1.435e+16	1.074e+07	2.39	-1.615e+05
 2.301e-06	9.478e+10	-1.433e+16	1.076e+07	2.388	-1.615e+05
 2.309e-06	9.467e+10	-1.432e+16	1.077e+07	2.387	-1.615e+05
 2.317e-06	9.456e+10	-1.43e+16	1.078e+07	2.386	-1.615e+05
 2.324e-06	9.445e+10	-1.428e+16	1.08e+07	2.385	-1.615e+05
 2.332e-06	9.434e+10	-1.427e+16	1.081e+07	2.383	-1.615e+05
  2.34e-06	9.423e+10	-1.425e+16	1.082e+07	2.382	-1.615e+05
 2.348e-06	9.411e+10	-1.423e+16	1.084e+07	2.381	-1.615e+05
 2.356e-06	9.4e+10	-1.422e+16	1.085e+07	2.379	-1.615e+05
 2.363e-06	9.389e+10	-1.42e+16	1.087e+07	2.378	-1.615e+05
 2.371e-06	9.378e+10	-1.418e+16	1.088e+07	2.377	-1.615e+05
 2.379e-06	9.367e+10	-1.417e+16	1.089e+07	2.376	-1.615e+05
 2.387e-06	9.356e+10	-1.415e+16	1.091e+07	2.374	-1.615e+05
 2.395e-06	9.345e+10	-1.413e+16	1.092e+07	2.373	-1.615e+05
 2.402e-06	9.334e+10	-1.412e+16	1.093e+07	2.372	-1.615e+05
  2.41e-06	9.323e+10	-1.41e+16	1.095e+07	2.371	-1.615e+05
 2.418e-06	9.312e+10	-1.408e+16	1.096e+07	2.369	-1.615e+05
 2.426e-06	9.301e+10	-1.407e+16	1.098e+07	2.368	-1.615e+05
 2.434e-06	9.29e+10	-1.405e+16	1.099e+07	2.367	-1.615e+05
 2.441e-06	9.279e+10	-1.403e+16	1.1e+07	2.366	-1.615e+05
 2.449e-06	9.268e+10	-1.402e+16	1.102e+07	2.364	-1.615e+05
 2.457e-06	9.257e+10	-1.4e+16	1.103e+07	2.363	-1.615e+05
 2.465e-06	9.246e+10	-1.398e+16	1.105e+07	2.362	-1.615e+05
 2.473e-06	9.235e+10	-1.397e+16	1.106e+07	2.361	-1.615e+05
  2.48e-06	9.225e+10	-1.395e+16	1.107e+07	2.359	-1.615e+05
 2.488e-06	9.214e+10	-1.393e+16	1.109e+07	2.358	-1.615e+05
 2.496e-06	9.203e+10	-1.392e+16	1.11e+07	2.357	-1.615e+05
 2.504e-06	9.192e+10	-1.39e+16	1.111e+07	2.356	-1.615e+05
 2.512e-06	9.181e+10	-1.388e+16	1.113e+07	2.354	-1.615e+05
 2.519e-06	9.17e+10	-1.387e+16	1.114e+07	2.353	-1.615e+05
 2.527e-06	9.16e+10	-1.385e+16	1.116e+07	2.352	-1.615e+05
 2.535e-06	9.149e+10	-1.383e+16	1.117e+07	2.35	-1.615e+05
 2.543e-06	9.138e+10	-1.382e+16	1.119e+07	2.349	-1.615e+05
 2.551e-06	9.127e+10	-1.38e+16	1.12e+07	2.348	-1.615e+05
 2.558e-06	9.116e+10	-1.379e+16	1.121e+07	2.347	-1.615e+05
 2.566e-06	9.106e+10	-1.377e+16	1.123e+07	2.345	-1.615e+05
 2.574e-06	9.095e+10	-1.375e+16	1.124e+07	2.344	-1.615e+05
 2.582e-06	9.084e+10	-1.374e+16	1.126e+07	2.343	-1.615e+05
  2.59e-06	9.074e+10	-1.372e+16	1.127e+07	2.342	-1.615e+05
 2.597e-06	9.063e+10	-1.371e+16	1.128e+07	2.34	-1.615e+05
 2.605e-06	9.052e+10	-1.369e+16	1.13e+07	2.339	-1.615e+05
 2.613e-06	9.041e+10	-1.367e+16	1.131e+07	2.338	-1.615e+05
 2.621e-06	9.031e+10	-1.366e+16	1.133e+07	2.337	-1.615e+05
 2.629e-06	9.02e+10	-1.364e+16	1.134e+07	2.335	-1.615e+05
 2.636e-06	9.01e+10	-1.362e+16	1.136e+07	2.334	-1.615e+05
 2.644e-06	8.999e+10	-1.361e+16	1.137e+07	2.333	-1.615e+05
 2.652e-06	8.988e+10	-1.359e+16	1.138e+07	2.332	-1.615e+05
